Potential(1),I(1),Scan(1),Potential(2),I(2),Scan(2),Potential(3),I(3),Scan(3),Voltage,Current
-0.196289063,-0.000290283,1,-0.19607544,-4.9408E-05,1,-0.196014404,-7.69958E-05,1,-0.196126302,-0.000138896
-0.193695068,-0.000247009,1,-0.193634033,-4.39545E-05,1,-0.193603516,-6.66199E-05,1,-0.193644206,-0.000119194
-0.191192627,-0.000218933,1,-0.191101074,-4.05945E-05,1,-0.191101074,-5.97229E-05,1,-0.191131592,-0.000106417
-0.188842773,-0.000198395,1,-0.188690186,-3.82507E-05,1,-0.188690186,-5.46875E-05,1,-0.188741048,-9.71111E-05
-0.186340332,-0.000181854,1,-0.186279297,-3.64319E-05,1,-0.186157227,-5.06592E-05,1,-0.186258952,-8.96484E-05
-0.183929443,-0.000168274,1,-0.183990479,-3.48633E-05,1,-0.183776856,-4.74976E-05,1,-0.183898926,-8.35449E-05
-0.181427002,-0.000156494,1,-0.181518555,-3.36731E-05,1,-0.181304932,-4.47479E-05,1,-0.181416829,-7.8305E-05
-0.179016113,-0.000146179,1,-0.179016113,-3.26538E-05,1,-0.178924561,-4.23859E-05,1,-0.178985596,-7.37396E-05
-0.17654419,-0.000136871,1,-0.176635742,-3.17566E-05,1,-0.176391602,-4.03015E-05,1,-0.176523845,-6.9643E-05
-0.174133301,-0.000128632,1,-0.174255371,-3.09753E-05,1,-0.174072266,-3.84918E-05,1,-0.174153646,-6.60331E-05
-0.171691895,-0.000121033,1,-0.17175293,-3.02765E-05,1,-0.171875,-3.66974E-05,1,-0.171773275,-6.2669E-05
-0.169158936,-0.000114044,1,-0.169281006,-2.96295E-05,1,-0.169342041,-3.52112E-05,1,-0.169260661,-5.96282E-05
-0.166748047,-0.000107635,1,-0.166870117,-2.90527E-05,1,-0.166900635,-3.38531E-05,1,-0.1668396,-5.6847E-05
-0.164245606,-0.000101654,1,-0.164367676,-2.85065E-05,1,-0.164428711,-3.25989E-05,1,-0.164347331,-5.42531E-05
-0.161804199,-9.60E-05,1,-0.161895752,-2.8006E-05,1,-0.161987305,-3.14514E-05,1,-0.161895752,-5.18219E-05
-0.159423828,-9.09E-05,1,-0.159545898,-2.75543E-05,1,-0.159484863,-3.03955E-05,1,-0.159484863,-4.96206E-05
-0.157043457,-8.60E-05,1,-0.157073975,-2.70966E-05,1,-0.15713501,-2.93976E-05,1,-0.157084147,-4.74975E-05
-0.154541016,-8.14E-05,1,-0.154602051,-2.66937E-05,1,-0.154663086,-2.84637E-05,1,-0.154602051,-4.5516E-05
-0.152130127,-7.70E-05,1,-0.152160645,-2.62909E-05,1,-0.152160645,-2.75818E-05,1,-0.152150472,-4.3633E-05
-0.149749756,-7.30E-05,1,-0.149810791,-2.59369E-05,1,-0.149780273,-2.67761E-05,1,-0.149780273,-4.19139E-05
-0.147186279,-6.91E-05,1,-0.147247315,-2.55737E-05,1,-0.14730835,-2.59888E-05,1,-0.147247314,-4.02181E-05
-0.144805908,-6.55E-05,1,-0.144805908,-2.52533E-05,1,-0.144897461,-2.52625E-05,1,-0.144836426,-3.86688E-05
-0.142364502,-6.20E-05,1,-0.142425537,-2.49176E-05,1,-0.142364502,-2.45544E-05,1,-0.142384847,-3.71612E-05
-0.139984131,-5.87E-05,1,-0.139923096,-2.46063E-05,1,-0.139984131,-2.38922E-05,1,-0.139963786,-3.57381E-05
-0.137420654,-5.55E-05,1,-0.13748169,-2.43042E-05,1,-0.137512207,-2.32361E-05,1,-0.137471517,-3.43404E-05
-0.135070801,-5.26E-05,1,-0.135101318,-2.40234E-05,1,-0.135070801,-2.2641E-05,1,-0.135080973,-3.30719E-05
-0.132598877,-4.97E-05,1,-0.132659912,-2.37518E-05,1,-0.132568359,-2.20581E-05,1,-0.13260905,-3.1841E-05
-0.130096436,-4.70E-05,1,-0.130249023,-2.34772E-05,1,-0.130126953,-2.14966E-05,1,-0.130157471,-3.0658E-05
-0.127746582,-4.44E-05,1,-0.127807617,-2.323E-05,1,-0.127624512,-2.09595E-05,1,-0.127726237,-2.95197E-05
-0.125244141,-4.18E-05,1,-0.125244141,-2.29797E-05,1,-0.125274658,-2.04407E-05,1,-0.125254313,-2.8422E-05
-0.122772217,-3.94E-05,1,-0.122802734,-2.27264E-05,1,-0.12286377,-1.9928E-05,1,-0.122812907,-2.73417E-05
-0.120574951,-3.70E-05,1,-0.120361328,-2.25067E-05,1,-0.120391846,-1.94733E-05,1,-0.120442708,-2.63296E-05
-0.118041992,-3.48E-05,1,-0.117889404,-2.22717E-05,1,-0.11795044,-1.90002E-05,1,-0.117960612,-2.5351E-05
-0.115661621,-3.26E-05,1,-0.115478516,-2.2052E-05,1,-0.115509033,-1.85486E-05,1,-0.115549723,-2.44141E-05
-0.113128662,-3.06E-05,1,-0.113067627,-2.18201E-05,1,-0.113067627,-1.81091E-05,1,-0.113087972,-2.34965E-05
-0.110717773,-2.87E-05,1,-0.110595703,-2.16217E-05,1,-0.110626221,-1.77063E-05,1,-0.110646566,-2.26674E-05
-0.10824585,-2.67E-05,1,-0.108154297,-2.1402E-05,1,-0.108093262,-1.7276E-05,1,-0.10816447,-2.17896E-05
-0.105834961,-2.50E-05,1,-0.105712891,-2.12128E-05,1,-0.105743408,-1.69006E-05,1,-0.105763753,-2.10246E-05
-0.103393555,-2.32E-05,1,-0.103302002,-2.10144E-05,1,-0.103271484,-1.65161E-05,1,-0.103322347,-2.02382E-05
-0.100921631,-2.15E-05,1,-0.100891113,-2.08099E-05,1,-0.100769043,-1.61377E-05,1,-0.100860596,-1.94753E-05
-0.098419189,-1.98E-05,1,-0.098388672,-2.06116E-05,1,-0.098327637,-1.57623E-05,1,-0.098378499,-1.87164E-05
-0.096038818,-1.83E-05,1,-0.095947266,-2.04376E-05,1,-0.095855713,-1.54327E-05,1,-0.095947266,-1.80542E-05
-0.093536377,-1.67E-05,1,-0.093536377,-2.02545E-05,1,-0.093475342,-1.50757E-05,1,-0.093516032,-1.73584E-05
-0.091094971,-1.53E-05,1,-0.091094971,-2.00623E-05,1,-0.091094971,-1.474E-05,1,-0.091094971,-1.66921E-05
-0.088684082,-1.38E-05,1,-0.088592529,-1.98944E-05,1,-0.088623047,-1.44104E-05,1,-0.088633219,-1.60472E-05
-0.086212158,-1.25E-05,1,-0.086242676,-1.97113E-05,1,-0.086151123,-1.409E-05,1,-0.086201986,-1.54185E-05
-0.083740234,-1.11E-05,1,-0.083709717,-1.95343E-05,1,-0.083557129,-1.37634E-05,1,-0.083669027,-1.47827E-05
-0.081298828,-9.84E-06,1,-0.081268311,-1.93665E-05,1,-0.081268311,-1.34766E-05,1,-0.081278483,-1.42273E-05
-0.078887939,-8.57E-06,1,-0.078857422,-1.92047E-05,1,-0.078765869,-1.31744E-05,1,-0.078837077,-1.36505E-05
-0.076416016,-7.32E-06,1,-0.076416016,-1.90308E-05,1,-0.07635498,-1.28754E-05,1,-0.076395671,-1.30768E-05
-0.073944092,-6.12E-06,1,-0.074005127,-1.8866E-05,1,-0.073944092,-1.25854E-05,1,-0.073964437,-1.25224E-05
-0.071563721,-5.04E-06,1,-0.071563721,-1.87073E-05,1,-0.071411133,-1.23199E-05,1,-0.071512858,-1.20229E-05
-0.069000244,-3.85E-06,1,-0.069030762,-1.85272E-05,1,-0.069030762,-1.2027E-05,1,-0.069020589,-1.1467E-05
-0.066619873,-2.85E-06,1,-0.066650391,-1.83838E-05,1,-0.066650391,-1.17737E-05,1,-0.066640218,-1.10025E-05
-0.064086914,-1.78E-06,1,-0.064208984,-1.82129E-05,1,-0.064178467,-1.15021E-05,1,-0.064158122,-1.04996E-05
-0.061737061,-7.59E-07,1,-0.061767578,-1.80542E-05,1,-0.061706543,-1.12488E-05,1,-0.061737061,-1.00205E-05
-0.059173584,3.11E-07,1,-0.059173584,-1.78925E-05,1,-0.059265137,-1.09741E-05,1,-0.059204102,-9.51843E-06
-0.056610107,1.19E-06,1,-0.05682373,-1.77429E-05,1,-0.056793213,-1.07452E-05,1,-0.05674235,-9.09892E-06
-0.054168701,2.16E-06,1,-0.054412842,-1.75873E-05,1,-0.054351807,-1.0495E-05,1,-0.054311116,-8.63953E-06
-0.051757813,3.08E-06,1,-0.051940918,-1.74225E-05,1,-0.0519104,-1.02509E-05,1,-0.05186971,-8.19804E-06
-0.049423218,3.96E-06,1,-0.049560547,-1.72699E-05,1,-0.049407959,-1.00159E-05,1,-0.049463908,-7.7769E-06
-0.047009277,4.84E-06,1,-0.046954346,-1.71112E-05,1,-0.046990967,-9.78088E-06,1,-0.046984863,-7.35046E-06
-0.044525146,5.76E-06,1,-0.044482422,-1.69434E-05,1,-0.044494629,-9.53369E-06,1,-0.044500732,-6.90664E-06
-0.042102051,6.50E-06,1,-0.042086792,-1.67969E-05,1,-0.042086792,-9.32617E-06,1,-0.042091878,-6.54185E-06
-0.039685059,7.32E-06,1,-0.039620972,-1.66321E-05,1,-0.039657593,-9.10034E-06,1,-0.039654541,-6.1381E-06
-0.037258911,8.11E-06,1,-0.037207031,-1.64673E-05,1,-0.037185669,-8.87756E-06,1,-0.037217204,-5.74646E-06
-0.034780884,8.92E-06,1,-0.034738159,-1.63086E-05,1,-0.034732056,-8.66089E-06,1,-0.034750366,-5.34871E-06
-0.032409668,9.59E-06,1,-0.032315063,-1.61469E-05,1,-0.032354736,-8.45642E-06,1,-0.032359823,-5.00387E-06
-0.029922485,1.04E-05,1,-0.029855347,-1.59698E-05,1,-0.029870605,-8.22449E-06,1,-0.029882812,-4.58781E-06
-0.027514648,1.11E-05,1,-0.027438354,-1.58142E-05,1,-0.027416992,-8.03223E-06,1,-0.027456665,-4.26128E-06
-0.02505188,1.18E-05,1,-0.025024414,-1.56403E-05,1,-0.025009155,-7.82166E-06,1,-0.025028483,-3.892E-06
-0.022647095,1.25E-05,1,-0.022573853,-1.54755E-05,1,-0.02258606,-7.61719E-06,1,-0.022602336,-3.53395E-06
-0.020144653,1.32E-05,1,-0.020092773,-1.52863E-05,1,-0.020089722,-7.40051E-06,1,-0.020109049,-3.14839E-06
-0.017694092,1.38E-05,1,-0.017672729,-1.51184E-05,1,-0.017678833,-7.22046E-06,1,-0.017681885,-2.83812E-06
-0.015267944,1.45E-05,1,-0.01524353,-1.49261E-05,1,-0.01522522,-7.01599E-06,1,-0.015245565,-2.48515E-06
-0.0128479,1.51E-05,1,-0.012808228,-1.47461E-05,1,-0.012802124,-6.81458E-06,1,-0.012819417,-2.14539E-06
-0.010391235,1.57E-05,1,-0.01036377,-1.45508E-05,1,-0.010357666,-6.61926E-06,1,-0.01037089,-1.80868E-06
-0.007962036,1.64E-05,1,-0.007904053,-1.43433E-05,1,-0.007904053,-6.427E-06,1,-0.00792338,-1.46789E-06
-0.005477905,1.70E-05,1,-0.00539856,-1.41357E-05,1,-0.005419922,-6.21948E-06,1,-0.005432129,-1.11084E-06
-0.003079224,1.75E-05,1,-0.003036499,-1.39343E-05,1,-0.003039551,-6.04248E-06,1,-0.003051758,-8.17869E-07
-0.000598145,1.81E-05,1,-0.000570679,-1.37207E-05,1,-0.000592041,-5.85022E-06,1,-0.000586955,-4.80141E-07
0.001879883,1.88E-05,1,0.001889038,-1.34766E-05,1,0.001940918,-5.6427E-06,1,0.00190328,-1.15954E-07
0.004333496,1.94E-05,1,0.004382324,-1.32416E-05,1,0.004364014,-5.45349E-06,1,0.004359945,2.21777E-07
0.006716919,1.98E-05,1,0.006790161,-1.30157E-05,1,0.006750488,-5.28564E-06,1,0.006752523,5.07603E-07
0.009216309,2.04E-05,1,0.009246826,-1.27411E-05,1,0.009246826,-5.07813E-06,1,0.009236654,8.72795E-07
0.01161499,2.09E-05,1,0.011663818,-0.0000125,1,0.01166687,-4.91028E-06,1,0.011648559,1.16067E-06
0.014044189,2.14E-05,1,0.014111328,-1.22192E-05,1,0.014074707,-4.72198E-06,1,0.014076741,1.49506E-06
0.016543579,2.20E-05,1,0.016574097,-1.19446E-05,1,0.016525269,-4.53156E-06,1,0.016547648,1.82912E-06
0.01897583,2.26E-05,1,0.019030762,-1.16211E-05,1,0.019018555,-4.33258E-06,1,0.019008382,2.20164E-06
0.021395874,2.30E-05,1,0.021429443,-1.13342E-05,1,0.021426392,-4.16046E-06,1,0.021417236,2.49604E-06
0.023831177,2.35E-05,1,0.023895264,-1.10138E-05,1,0.02381897,-3.96271E-06,1,0.02384847,2.8366E-06
0.026278687,2.40E-05,1,0.026324463,-1.06781E-05,1,0.026330566,-3.77441E-06,1,0.026311239,3.18216E-06
0.028717041,2.45E-05,1,0.028778076,-1.03302E-05,1,0.028738403,-3.58246E-06,1,0.028744507,3.52795E-06
0.031161499,2.50E-05,1,0.031234741,-9.95789E-06,1,0.031152344,-3.39508E-06,1,0.031182861,3.88338E-06
0.033673096,2.56E-05,1,0.033700562,-9.56421E-06,1,0.033660889,-3.18848E-06,1,0.033678182,4.27367E-06
0.03604126,2.60E-05,1,0.036108398,-9.17664E-06,1,0.036087036,-3.01361E-06,1,0.036078898,4.59342E-06
0.038485718,2.65E-05,1,0.038531494,-8.7616E-06,1,0.038516235,-2.81403E-06,1,0.038511149,4.96716E-06
0.040914917,2.70E-05,1,0.040963745,-8.31604E-06,1,0.040930176,-2.62268E-06,1,0.040936279,5.33813E-06
0.043356323,2.75E-05,1,0.043438721,-7.85217E-06,1,0.043423462,-2.41608E-06,1,0.043406169,5.74065E-06
0.045806885,2.79E-05,1,0.045822144,-7.38831E-06,1,0.045819092,-2.22717E-06,1,0.04581604,6.09761E-06
0.048284912,2.85E-05,1,0.048330688,-6.86646E-06,1,0.048297119,-2.00623E-06,1,0.04830424,6.54561E-06
0.05078125,2.89E-05,1,0.05065918,-6.35986E-06,1,0.050537109,-1.81824E-06,1,0.05065918,6.91347E-06
0.053192139,2.94E-05,1,0.053100586,-5.8136E-06,1,0.053070068,-1.60797E-06,1,0.053120931,7.34061E-06
0.05569458,3.00E-05,1,0.055541992,-5.25513E-06,1,0.055450439,-1.39404E-06,1,0.055562337,7.77201E-06
0.058105469,3.06E-05,1,0.058013916,-4.64203E-06,1,0.057952881,-1.16608E-06,1,0.058024089,8.24973E-06
0.060577393,3.10E-05,1,0.060455322,-4.06525E-06,1,0.06036377,-9.70459E-07,1,0.060465495,8.65163E-06
0.063079834,3.16E-05,1,0.062896729,-3.4259E-06,1,0.062896729,-7.4646E-07,1,0.062957764,9.12761E-06
0.06552124,3.21E-05,1,0.065307617,-2.76733E-06,1,0.065246582,-5.20935E-07,1,0.06535848,9.60134E-06
0.067932129,3.26E-05,1,0.067810059,-2.09595E-06,1,0.067749023,-2.98462E-07,1,0.067830404,1.00844E-05
0.070343018,3.32E-05,1,0.070129395,-1.40106E-06,1,0.07019043,-6.7749E-08,1,0.070220947,1.05862E-05
0.072906494,3.39E-05,1,0.072723389,-6.63147E-07,1,0.072753906,1.8396E-07,1,0.072794596,1.11318E-05
0.075256348,3.44E-05,1,0.075164795,4.55017E-08,1,0.075134277,3.98865E-07,1,0.07518514,1.16075E-05
0.077728271,3.50E-05,1,0.077545166,7.98645E-07,1,0.077636719,6.40259E-07,1,0.077636719,1.21516E-05
0.080230713,3.57E-05,1,0.08013916,1.57562E-06,1,0.079986572,8.93555E-07,1,0.080118815,1.27168E-05
0.082550049,3.64E-05,1,0.082641602,2.36053E-06,1,0.082550049,1.15082E-06,1,0.082580566,1.32971E-05
0.084991455,3.70E-05,1,0.085113525,3.14728E-06,1,0.084960938,1.38214E-06,1,0.085021973,1.38277E-05
0.087646484,3.78E-05,1,0.087585449,3.9801E-06,1,0.087493896,1.65649E-06,1,0.087575277,1.44674E-05
0.08996582,3.84E-05,1,0.090026855,4.76898E-06,1,0.08984375,1.8988E-06,1,0.089945475,1.50196E-05
0.092468262,3.92E-05,1,0.092559814,5.61157E-06,1,0.092285156,2.16187E-06,1,0.092437744,1.56506E-05
0.094818115,4.00E-05,1,0.095031738,6.44043E-06,1,0.09475708,2.42615E-06,1,0.094868978,1.62734E-05
0.097351074,4.08E-05,1,0.097137451,7.32117E-06,1,0.097320557,2.72125E-06,1,0.097269694,1.69634E-05
0.099731445,4.16E-05,1,0.099639893,8.12073E-06,1,0.09967041,2.97272E-06,1,0.099680583,1.7568E-05
0.102203369,4.25E-05,1,0.101928711,8.98132E-06,1,0.102111816,3.24799E-06,1,0.102081299,1.82437E-05
0.104553223,4.34E-05,1,0.104492188,9.82056E-06,1,0.104644775,3.52539E-06,1,0.104563395,1.89262E-05
0.107116699,4.44E-05,1,0.106933594,1.06628E-05,1,0.107086182,3.80493E-06,1,0.107045491,1.96175E-05
0.109436035,4.54E-05,1,0.109375,1.1499E-05,1,0.109558106,4.08569E-06,1,0.10945638,2.03225E-05
0.111999512,4.65E-05,1,0.111846924,1.23474E-05,1,0.111938477,4.3866E-06,1,0.111928304,2.10799E-05
0.1144104,4.75E-05,1,0.11428833,1.31256E-05,1,0.1144104,4.64813E-06,1,0.11436971,2.17469E-05
0.116851807,4.86E-05,1,0.116760254,1.39191E-05,1,0.116973877,4.9353E-06,1,0.116861979,2.24774E-05
0.119415283,4.99E-05,1,0.11920166,1.47552E-05,1,0.119415283,5.23834E-06,1,0.119344075,2.32864E-05
0.121795654,5.11E-05,1,0.121643066,1.55273E-05,1,0.121948242,5.5304E-06,1,0.121795654,2.40419E-05
0.124267578,5.22E-05,1,0.12411499,1.62445E-05,1,0.124298096,5.79376E-06,1,0.124226888,2.47411E-05
0.12677002,5.36E-05,1,0.126556397,1.69952E-05,1,0.126861572,6.09558E-06,1,0.12672933,2.55568E-05
0.129119873,5.48E-05,1,0.128997803,1.76758E-05,1,0.128936768,6.35986E-06,1,0.129018148,2.62675E-05
0.13168335,5.61E-05,1,0.131408691,1.83594E-05,1,0.131317139,6.64063E-06,1,0.131469727,2.70447E-05
0.134124756,5.75E-05,1,0.133850098,1.90094E-05,1,0.133758545,6.91833E-06,1,0.133911133,2.78188E-05
0.13659668,5.91E-05,1,0.136383057,1.96808E-05,1,0.136291504,7.20825E-06,1,0.136423747,2.86479E-05
0.138946533,6.04E-05,1,0.13873291,2.02423E-05,1,0.138702393,7.46155E-06,1,0.138793945,2.9364E-05
0.141143799,6.17E-05,1,0.141204834,2.08313E-05,1,0.141143799,7.72705E-06,1,0.141164144,3.00985E-05
0.143554688,6.33E-05,1,0.143707275,2.13806E-05,1,0.143554688,7.99866E-06,1,0.14360555,3.08807E-05
0.146026611,6.48E-05,1,0.146118164,2.19116E-05,1,0.146026611,8.255E-06,1,0.146057129,3.16518E-05
0.148406982,6.63E-05,1,0.14855957,2.2406E-05,1,0.148468018,8.5083E-06,1,0.14847819,3.24198E-05
0.150970459,6.80E-05,1,0.151000977,2.28943E-05,1,0.150878906,8.77991E-06,1,0.150950114,3.32225E-05
0.153320313,6.94E-05,1,0.153442383,2.33063E-05,1,0.153320313,9.01184E-06,1,0.153361003,3.39152E-05
0.155822754,7.10E-05,1,0.155853272,2.37152E-05,1,0.155822754,9.25598E-06,1,0.155832926,3.46619E-05
0.158172607,7.25E-05,1,0.15826416,2.40936E-05,1,0.15826416,9.48181E-06,1,0.158233642,3.53617E-05
0.160614014,7.42E-05,1,0.160705566,2.44629E-05,1,0.160675049,9.73511E-06,1,0.160664876,3.61186E-05
0.162994385,7.56E-05,1,0.16317749,2.47742E-05,1,0.163116455,9.94568E-06,1,0.16309611,3.67706E-05
0.165588379,7.72E-05,1,0.165710449,2.51038E-05,1,0.165527344,1.01959E-05,1,0.165608724,3.75132E-05
0.167907715,7.86E-05,1,0.168029785,2.53662E-05,1,0.167999268,1.04004E-05,1,0.167978923,3.81266E-05
0.170410156,8.01E-05,1,0.170440674,2.56195E-05,1,0.170318604,1.06232E-05,1,0.170389811,3.87838E-05
0.172790527,8.15E-05,1,0.172912598,2.58606E-05,1,0.172851563,1.08398E-05,1,0.172851562,3.94145E-05
0.175231934,8.30E-05,1,0.175354004,2.60986E-05,1,0.175354004,1.10626E-05,1,0.175313314,4.00665E-05
0.177703857,8.43E-05,1,0.17779541,2.62543E-05,1,0.177734375,1.12518E-05,1,0.177744547,4.05884E-05
0.180145264,8.55E-05,1,0.180328369,2.64374E-05,1,0.180175781,1.14594E-05,1,0.180216471,4.11458E-05
0.18258667,8.68E-05,1,0.18270874,2.65778E-05,1,0.182617188,1.16608E-05,1,0.182637533,4.16768E-05
0.185028076,8.80E-05,1,0.185089111,2.67242E-05,1,0.185028076,1.18591E-05,1,0.185048421,4.21784E-05
0.187561035,8.91E-05,1,0.187652588,2.68311E-05,1,0.187561035,1.20514E-05,1,0.187591553,4.26442E-05
0.190002441,9.02E-05,1,0.190063477,2.6947E-05,1,0.190032959,1.22589E-05,1,0.190032959,4.31284E-05
0.192382813,9.10E-05,1,0.192504883,2.7002E-05,1,0.192382813,1.24268E-05,1,0.192423503,4.34774E-05
0.194793701,9.19E-05,1,0.194946289,2.70691E-05,1,0.194885254,1.2619E-05,1,0.194875081,4.38487E-05
0.197265625,9.27E-05,1,0.197418213,2.71301E-05,1,0.19732666,1.28082E-05,1,0.197336833,4.41966E-05
0.199798584,9.34E-05,1,0.199920654,2.71759E-05,1,0.199768066,1.29974E-05,1,0.199829102,4.45292E-05
0.202178955,9.39E-05,1,0.202301025,2.7182E-05,1,0.202148438,1.31592E-05,1,0.202209473,4.47378E-05
0.204650879,9.45E-05,1,0.204742432,2.72064E-05,1,0.204650879,1.33545E-05,1,0.204681397,4.50144E-05
0.207092285,9.48E-05,1,0.207122803,2.72003E-05,1,0.207092285,1.35132E-05,1,0.207102458,4.51772E-05
0.209472656,9.52E-05,1,0.209625244,2.7182E-05,1,0.209533691,1.36902E-05,1,0.209543864,4.53522E-05
0.21194458,9.55E-05,1,0.212036133,2.71759E-05,1,0.21194458,1.38641E-05,1,0.211975098,4.54997E-05
0.214477539,9.57E-05,1,0.214508057,2.71637E-05,1,0.214477539,1.40533E-05,1,0.214487712,4.56502E-05
0.21685791,9.57E-05,1,0.216918945,2.71118E-05,1,0.216888428,1.42029E-05,1,0.216888428,4.56828E-05
0.219268799,9.58E-05,1,0.219360352,2.70691E-05,1,0.219268799,1.43707E-05,1,0.219299316,4.57448E-05
0.221679688,9.58E-05,1,0.221832275,2.70233E-05,1,0.221679688,1.45416E-05,1,0.22173055,4.57764E-05
0.224151611,9.57E-05,1,0.224304199,2.69714E-05,1,0.224182129,1.47064E-05,1,0.224212646,4.57937E-05
0.2265625,9.56E-05,1,0.226715088,2.68982E-05,1,0.226623535,1.48804E-05,1,0.226633708,4.57764E-05
0.229125977,9.54E-05,1,0.229248047,2.68677E-05,1,0.229125977,1.50604E-05,1,0.229166667,4.57855E-05
0.231414795,9.51E-05,1,0.2315979,2.67639E-05,1,0.231506348,1.52039E-05,1,0.231506348,4.56869E-05
0.233917236,9.48E-05,1,0.234039307,2.67029E-05,1,0.234039307,1.53717E-05,1,0.233998616,4.56309E-05
0.23638916,9.46E-05,1,0.236480713,2.66296E-05,1,0.236419678,1.55426E-05,1,0.23642985,4.55821E-05
0.238830566,9.42E-05,1,0.238922119,2.65503E-05,1,0.238891602,1.57104E-05,1,0.238881429,4.54997E-05
0.241271973,9.38E-05,1,0.241333008,2.64557E-05,1,0.241333008,1.58478E-05,1,0.241312663,4.53715E-05
0.243713379,9.35E-05,1,0.243896484,2.63763E-05,1,0.243743897,1.6037E-05,1,0.243784587,4.53166E-05
0.246124268,9.30E-05,1,0.246276856,2.62878E-05,1,0.246185303,1.61774E-05,1,0.246195475,4.51609E-05
0.248596191,9.27E-05,1,0.248626709,2.61871E-05,1,0.248626709,1.63422E-05,1,0.248616536,4.50602E-05
0.250946045,9.23E-05,1,0.251068115,2.61139E-05,1,0.25100708,1.65009E-05,1,0.25100708,4.49564E-05
0.253509522,9.19E-05,1,0.253540039,2.60406E-05,1,0.253570557,1.66809E-05,1,0.253540039,4.48802E-05
0.255859375,9.14E-05,1,0.256011963,2.59369E-05,1,0.255950928,1.68121E-05,1,0.255940755,4.47164E-05
0.258331299,9.10E-05,1,0.258453369,2.58362E-05,1,0.258361816,1.698E-05,1,0.258382162,4.46065E-05
0.26083374,9.06E-05,1,0.260894775,2.57507E-05,1,0.260772705,1.71387E-05,1,0.26083374,4.44885E-05
0.263183594,9.02E-05,1,0.263305664,2.56714E-05,1,0.263275147,1.72974E-05,1,0.263254802,4.43827E-05
0.265686035,8.98E-05,1,0.265808106,2.55676E-05,1,0.265777588,1.7453E-05,1,0.265757243,4.42779E-05
0.268157959,8.95E-05,1,0.268310547,2.55157E-05,1,0.268249512,1.7627E-05,1,0.268239339,4.42067E-05
0.27053833,8.90E-05,1,0.2706604,2.53967E-05,1,0.270599365,1.77582E-05,1,0.270599365,4.40582E-05
0.272979736,8.87E-05,1,0.273071289,2.53174E-05,1,0.273040772,1.79138E-05,1,0.273030599,4.39718E-05
